统计序号,client发送时间(ms),client接收时间(ms),server发送时间(ms),server接收时间(ms),本地总线间隔时间(ms),占比百分比(%),服务端间隔时间(ms),占比百分比(%),对比百分比1 L/S(%),对比百分比2 S/L(%)
0,29500740,29500771,29500740,29500771,0,0.000000,31,100.000000,0.000000,1.000000
1,29500771,29500803,29500787,29500803,16,50.000000,16,50.000000,100.000000,100.000000
2,29500803,29500834,29500818,29500834,15,48.387097,16,51.612903,93.750000,106.666667
3,29500834,29500865,29500834,29500849,16,51.612903,15,48.387097,106.666667,93.750000
4,29500865,29500881,29500865,29500881,0,0.000000,16,100.000000,0.000000,1.000000
5,29500881,29500912,29500896,29500912,15,48.387097,16,51.612903,93.750000,106.666667
6,29500912,29500927,29500912,29500927,0,0.000000,15,100.000000,0.000000,1.000000
7,29500927,29500959,29500943,29500959,16,50.000000,16,50.000000,100.000000,100.000000
8,29500959,29500990,29500974,29500990,15,48.387097,16,51.612903,93.750000,106.666667
9,29500990,29501021,29500990,29501005,16,51.612903,15,48.387097,106.666667,93.750000
10,29501021,29501052,29501021,29501037,15,48.387097,16,51.612903,93.750000,106.666667
11,29501052,29501068,29501052,29501068,0,0.000000,16,100.000000,0.000000,1.000000
12,29501068,29501099,29501083,29501083,31,100.000000,0,0.000000,1.000000,0.000000
13,29501099,29501130,29501099,29501115,15,48.387097,16,51.612903,93.750000,106.666667
14,29501130,29501161,29501130,29501146,15,48.387097,16,51.612903,93.750000,106.666667
15,29501161,29501177,29501161,29501177,0,0.000000,16,100.000000,0.000000,1.000000
16,29501177,29501208,29501193,29501208,16,51.612903,15,48.387097,106.666667,93.750000
17,29501208,29501239,29501224,29501239,16,51.612903,15,48.387097,106.666667,93.750000
18,29501239,29501271,29501255,29501271,16,50.000000,16,50.000000,100.000000,100.000000
19,29501271,29501302,29501286,29501302,15,48.387097,16,51.612903,93.750000,106.666667
20,29501302,29501333,29501302,29501317,16,51.612903,15,48.387097,106.666667,93.750000
21,29501333,29501364,29501349,29501364,16,51.612903,15,48.387097,106.666667,93.750000
22,29501364,29501395,29501364,29501395,0,0.000000,31,100.000000,0.000000,1.000000
23,29501395,29501427,29501395,29501411,16,50.000000,16,50.000000,100.000000,100.000000
24,29501427,29501442,29501427,29501442,0,0.000000,15,100.000000,0.000000,1.000000
25,29501442,29501473,29501458,29501473,16,51.612903,15,48.387097,106.666667,93.750000
26,29501473,29501505,29501489,29501505,16,50.000000,16,50.000000,100.000000,100.000000
27,29501505,29501536,29501505,29501520,16,51.612903,15,48.387097,106.666667,93.750000
28,29501536,29501551,29501536,29501551,0,0.000000,15,100.000000,0.000000,1.000000
29,29501551,29501583,29501567,29501583,16,50.000000,16,50.000000,100.000000,100.000000
30,29501583,29501614,29501598,29501614,15,48.387097,16,51.612903,93.750000,106.666667
31,29501614,29501645,29501614,29501629,16,51.612903,15,48.387097,106.666667,93.750000
32,29501645,29501676,29501645,29501661,15,48.387097,16,51.612903,93.750000,106.666667
33,29501676,29501707,29501676,29501692,15,48.387097,16,51.612903,93.750000,106.666667
34,29501707,29501739,29501707,29501739,0,0.000000,32,100.000000,0.000000,1.000000
35,29501739,29501817,29501739,29501817,0,0.000000,78,100.000000,0.000000,1.000000
36,29501817,29501848,29501817,29501832,16,51.612903,15,48.387097,106.666667,93.750000
37,29501848,29501879,29501848,29501863,16,51.612903,15,48.387097,106.666667,93.750000
38,29501879,29501910,29501879,29501910,0,0.000000,31,100.000000,0.000000,1.000000
39,29501910,29501941,29501910,29501926,15,48.387097,16,51.612903,93.750000,106.666667
40,29501941,29501973,29501941,29501957,16,50.000000,16,50.000000,100.000000,100.000000
41,29501973,29501988,29501973,29501988,0,0.000000,15,100.000000,0.000000,1.000000
42,29501988,29502019,29502004,29502019,16,51.612903,15,48.387097,106.666667,93.750000
43,29502019,29502051,29502035,29502051,16,50.000000,16,50.000000,100.000000,100.000000
44,29502051,29502082,29502066,29502082,15,48.387097,16,51.612903,93.750000,106.666667
45,29502082,29502113,29502082,29502097,16,51.612903,15,48.387097,106.666667,93.750000
46,29502113,29502144,29502129,29502144,16,51.612903,15,48.387097,106.666667,93.750000
47,29502144,29502175,29502160,29502175,16,51.612903,15,48.387097,106.666667,93.750000
48,29502175,29502207,29502175,29502207,0,0.000000,32,100.000000,0.000000,1.000000
49,29502207,29502238,29502207,29502222,16,51.612903,15,48.387097,106.666667,93.750000
50,29502238,29502269,29502238,29502253,16,51.612903,15,48.387097,106.666667,93.750000
51,29502269,29502285,29502269,29502285,0,0.000000,16,100.000000,0.000000,1.000000
52,29502285,29502316,29502300,29502316,15,48.387097,16,51.612903,93.750000,106.666667
53,29502316,29502347,29502316,29502331,16,51.612903,15,48.387097,106.666667,93.750000
54,29502347,29502363,29502347,29502363,0,0.000000,16,100.000000,0.000000,1.000000
55,29502363,29502394,29502378,29502394,15,48.387097,16,51.612903,93.750000,106.666667
56,29502394,29502425,29502409,29502425,15,48.387097,16,51.612903,93.750000,106.666667
57,29502425,29502456,29502425,29502441,15,48.387097,16,51.612903,93.750000,106.666667
58,29502456,29502487,29502456,29502472,15,48.387097,16,51.612903,93.750000,106.666667
59,29502487,29502519,29502487,29502519,0,0.000000,32,100.000000,0.000000,1.000000
60,29502519,29502550,29502519,29502534,16,51.612903,15,48.387097,106.666667,93.750000
61,29502550,29502581,29502550,29502565,16,51.612903,15,48.387097,106.666667,93.750000
62,29502581,29502597,29502581,29502597,0,0.000000,16,100.000000,0.000000,1.000000
63,29502597,29502628,29502597,29502612,16,51.612903,15,48.387097,106.666667,93.750000
64,29502628,29502659,29502628,29502643,16,51.612903,15,48.387097,106.666667,93.750000
65,29502659,29502675,29502659,29502675,0,0.000000,16,100.000000,0.000000,1.000000
66,29502675,29502706,29502690,29502706,15,48.387097,16,51.612903,93.750000,106.666667
67,29502706,29502737,29502706,29502721,16,51.612903,15,48.387097,106.666667,93.750000
68,29502737,29502768,29502737,29502753,15,48.387097,16,51.612903,93.750000,106.666667
69,29502768,29502784,29502768,29502784,0,0.000000,16,100.000000,0.000000,1.000000
70,29502784,29502815,29502799,29502815,15,48.387097,16,51.612903,93.750000,106.666667
71,29502815,29502846,29502815,29502831,15,48.387097,16,51.612903,93.750000,106.666667
72,29502846,29502877,29502846,29502862,15,48.387097,16,51.612903,93.750000,106.666667
73,29502877,29502909,29502877,29502909,0,0.000000,32,100.000000,0.000000,1.000000
74,29502909,29502940,29502909,29502924,16,51.612903,15,48.387097,106.666667,93.750000
75,29502940,29502971,29502940,29502955,16,51.612903,15,48.387097,106.666667,93.750000
76,29502971,29503002,29502971,29502987,15,48.387097,16,51.612903,93.750000,106.666667
77,29503002,29503018,29503002,29503018,0,0.000000,16,100.000000,0.000000,1.000000
78,29503018,29503049,29503018,29503033,16,51.612903,15,48.387097,106.666667,93.750000
79,29503049,29503080,29503049,29503065,15,48.387097,16,51.612903,93.750000,106.666667
80,29503080,29503111,29503080,29503096,15,48.387097,16,51.612903,93.750000,106.666667
81,29503111,29503143,29503111,29503127,16,50.000000,16,50.000000,100.000000,100.000000
82,29503143,29503158,29503143,29503158,0,0.000000,15,100.000000,0.000000,1.000000
83,29503158,29503189,29503174,29503189,16,51.612903,15,48.387097,106.666667,93.750000
84,29503189,29503221,29503205,29503221,16,50.000000,16,50.000000,100.000000,100.000000
85,29503221,29503252,29503236,29503252,15,48.387097,16,51.612903,93.750000,106.666667
86,29503252,29503267,29503252,29503267,0,0.000000,15,100.000000,0.000000,1.000000
87,29503267,29503299,29503283,29503299,16,50.000000,16,50.000000,100.000000,100.000000
88,29503299,29503330,29503314,29503330,15,48.387097,16,51.612903,93.750000,106.666667
89,29503330,29503361,29503345,29503361,15,48.387097,16,51.612903,93.750000,106.666667
90,29503361,29503392,29503361,29503392,0,0.000000,31,100.000000,0.000000,1.000000
91,29503392,29503423,29503408,29503423,16,51.612903,15,48.387097,106.666667,93.750000
92,29503423,29503455,29503439,29503455,16,50.000000,16,50.000000,100.000000,100.000000
93,29503455,29503486,29503455,29503470,16,51.612903,15,48.387097,106.666667,93.750000
94,29503486,29503517,29503486,29503501,16,51.612903,15,48.387097,106.666667,93.750000
95,29503517,29503548,29503533,29503548,16,51.612903,15,48.387097,106.666667,93.750000
96,29503548,29503579,29503548,29503564,15,48.387097,16,51.612903,93.750000,106.666667
97,29503579,29503611,29503579,29503595,16,50.000000,16,50.000000,100.000000,100.000000
98,29503611,29503626,29503611,29503626,0,0.000000,15,100.000000,0.000000,1.000000
99,29503626,29503657,29503626,29503657,0,0.000000,31,100.000000,0.000000,1.000000
100,29503657,29503689,29503657,29503673,16,50.000000,16,50.000000,100.000000,100.000000
101,29503689,29503720,29503689,29503704,16,51.612903,15,48.387097,106.666667,93.750000
102,29503720,29503735,29503720,29503735,0,0.000000,15,100.000000,0.000000,1.000000
103,29503735,29503767,29503735,29503767,0,0.000000,32,100.000000,0.000000,1.000000
104,29503767,29503798,29503767,29503782,16,51.612903,15,48.387097,106.666667,93.750000
105,29503798,29503829,29503798,29503813,16,51.612903,15,48.387097,106.666667,93.750000
106,29503829,29503860,29503829,29503860,0,0.000000,31,100.000000,0.000000,1.000000
107,29503860,29503891,29503860,29503876,15,48.387097,16,51.612903,93.750000,106.666667
108,29503891,29503923,29503891,29503907,16,50.000000,16,50.000000,100.000000,100.000000
109,29503923,29503938,29503923,29503938,0,0.000000,15,100.000000,0.000000,1.000000
110,29503938,29503969,29503954,29503969,16,51.612903,15,48.387097,106.666667,93.750000
111,29503969,29504001,29503985,29504001,16,50.000000,16,50.000000,100.000000,100.000000
112,29504001,29504032,29504016,29504032,15,48.387097,16,51.612903,93.750000,106.666667
113,29504032,29504047,29504032,29504047,0,0.000000,15,100.000000,0.000000,1.000000
114,29504047,29504079,29504063,29504079,16,50.000000,16,50.000000,100.000000,100.000000
115,29504079,29504110,29504094,29504110,15,48.387097,16,51.612903,93.750000,106.666667
116,29504110,29504141,29504125,29504141,15,48.387097,16,51.612903,93.750000,106.666667
117,29504141,29504172,29504157,29504172,16,51.612903,15,48.387097,106.666667,93.750000
118,29504172,29504203,29504188,29504203,16,51.612903,15,48.387097,106.666667,93.750000
119,29504203,29504235,29504203,29504219,16,50.000000,16,50.000000,100.000000,100.000000
120,29504235,29504266,29504250,29504266,15,48.387097,16,51.612903,93.750000,106.666667
121,29504266,29504297,29504266,29504281,16,51.612903,15,48.387097,106.666667,93.750000
122,29504297,29504328,29504297,29504313,15,48.387097,16,51.612903,93.750000,106.666667
123,29504328,29504344,29504328,29504344,0,0.000000,16,100.000000,0.000000,1.000000
124,29504344,29504375,29504359,29504375,15,48.387097,16,51.612903,93.750000,106.666667
125,29504375,29504406,29504375,29504391,15,48.387097,16,51.612903,93.750000,106.666667
126,29504406,29504422,29504406,29504422,0,0.000000,16,100.000000,0.000000,1.000000
127,29504422,29504453,29504437,29504453,15,48.387097,16,51.612903,93.750000,106.666667
128,29504453,29504484,29504469,29504484,16,51.612903,15,48.387097,106.666667,93.750000
129,29504484,29504515,29504484,29504500,15,48.387097,16,51.612903,93.750000,106.666667
130,29504515,29504547,29504531,29504547,16,50.000000,16,50.000000,100.000000,100.000000
131,29504547,29504578,29504547,29504562,16,51.612903,15,48.387097,106.666667,93.750000
132,29504578,29504609,29504578,29504593,16,51.612903,15,48.387097,106.666667,93.750000
133,29504609,29504625,29504609,29504625,0,0.000000,16,100.000000,0.000000,1.000000
134,29504625,29504656,29504625,29504656,0,0.000000,31,100.000000,0.000000,1.000000
135,29504656,29504687,29504656,29504671,16,51.612903,15,48.387097,106.666667,93.750000
136,29504687,29504703,29504687,29504703,0,0.000000,16,100.000000,0.000000,1.000000
137,29504703,29504734,29504718,29504734,15,48.387097,16,51.612903,93.750000,106.666667
138,29504734,29504765,29504734,29504749,16,51.612903,15,48.387097,106.666667,93.750000
139,29504765,29504781,29504765,29504781,0,0.000000,16,100.000000,0.000000,1.000000
140,29504781,29504812,29504796,29504812,15,48.387097,16,51.612903,93.750000,106.666667
141,29504812,29504843,29504827,29504843,15,48.387097,16,51.612903,93.750000,106.666667
142,29504843,29504874,29504843,29504859,15,48.387097,16,51.612903,93.750000,106.666667
143,29504874,29504905,29504890,29504905,16,51.612903,15,48.387097,106.666667,93.750000
144,29504905,29504937,29504905,29504937,0,0.000000,32,100.000000,0.000000,1.000000
145,29504937,29504968,29504937,29504952,16,51.612903,15,48.387097,106.666667,93.750000
146,29504968,29504983,29504968,29504983,0,0.000000,15,100.000000,0.000000,1.000000
147,29504983,29505015,29504999,29505015,16,50.000000,16,50.000000,100.000000,100.000000
148,29505015,29505046,29505015,29505030,16,51.612903,15,48.387097,106.666667,93.750000
149,29505046,29505077,29505061,29505077,15,48.387097,16,51.612903,93.750000,106.666667
150,29505077,29505108,29505077,29505093,15,48.387097,16,51.612903,93.750000,106.666667
151,29505108,29505139,29505108,29505124,15,48.387097,16,51.612903,93.750000,106.666667
152,29505139,29505155,29505139,29505155,0,0.000000,16,100.000000,0.000000,1.000000
153,29505155,29505186,29505171,29505186,16,51.612903,15,48.387097,106.666667,93.750000
154,29505186,29505217,29505186,29505202,15,48.387097,16,51.612903,93.750000,106.666667
155,29505217,29505233,29505217,29505233,0,0.000000,16,100.000000,0.000000,1.000000
156,29505233,29505264,29505249,29505264,16,51.612903,15,48.387097,106.666667,93.750000
157,29505264,29505295,29505264,29505295,0,0.000000,31,100.000000,0.000000,1.000000
158,29505295,29505327,29505295,29505311,16,50.000000,16,50.000000,100.000000,100.000000
159,29505327,29505358,29505342,29505358,15,48.387097,16,51.612903,93.750000,106.666667
160,29505358,29505389,29505358,29505373,16,51.612903,15,48.387097,106.666667,93.750000
161,29505389,29505420,29505389,29505405,15,48.387097,16,51.612903,93.750000,106.666667
162,29505420,29505451,29505420,29505436,15,48.387097,16,51.612903,93.750000,106.666667
163,29505451,29505483,29505451,29505467,16,50.000000,16,50.000000,100.000000,100.000000
164,29505483,29505498,29505483,29505498,0,0.000000,15,100.000000,0.000000,1.000000
165,29505498,29505529,29505514,29505529,16,51.612903,15,48.387097,106.666667,93.750000
166,29505529,29505561,29505529,29505545,16,50.000000,16,50.000000,100.000000,100.000000
167,29505561,29505592,29505561,29505576,16,51.612903,15,48.387097,106.666667,93.750000
168,29505592,29505607,29505592,29505607,0,0.000000,15,100.000000,0.000000,1.000000
169,29505607,29505639,29505607,29505639,0,0.000000,32,100.000000,0.000000,1.000000
170,29505639,29505670,29505639,29505654,16,51.612903,15,48.387097,106.666667,93.750000
171,29505670,29505685,29505670,29505685,0,0.000000,15,100.000000,0.000000,1.000000
172,29505685,29505717,29505701,29505717,16,50.000000,16,50.000000,100.000000,100.000000
173,29505717,29505748,29505717,29505732,16,51.612903,15,48.387097,106.666667,93.750000
174,29505748,29505779,29505748,29505763,16,51.612903,15,48.387097,106.666667,93.750000
175,29505779,29505810,29505779,29505795,15,48.387097,16,51.612903,93.750000,106.666667
176,29505810,29505841,29505810,29505826,15,48.387097,16,51.612903,93.750000,106.666667
177,29505841,29505873,29505841,29505857,16,50.000000,16,50.000000,100.000000,100.000000
178,29505873,29505888,29505873,29505888,0,0.000000,15,100.000000,0.000000,1.000000
179,29505888,29505919,29505888,29505904,15,48.387097,16,51.612903,93.750000,106.666667
180,29505919,29505951,29505919,29505935,16,50.000000,16,50.000000,100.000000,100.000000
181,29505951,29505966,29505951,29505966,0,0.000000,15,100.000000,0.000000,1.000000
182,29505966,29505997,29505982,29505997,16,51.612903,15,48.387097,106.666667,93.750000
183,29505997,29506029,29505997,29506013,16,50.000000,16,50.000000,100.000000,100.000000
184,29506029,29506044,29506029,29506044,0,0.000000,15,100.000000,0.000000,1.000000
185,29506044,29506075,29506060,29506075,16,51.612903,15,48.387097,106.666667,93.750000
186,29506075,29506107,29506075,29506107,0,0.000000,32,100.000000,0.000000,1.000000
187,29506107,29506138,29506107,29506122,16,51.612903,15,48.387097,106.666667,93.750000
188,29506138,29506153,29506138,29506153,0,0.000000,15,100.000000,0.000000,1.000000
189,29506153,29506185,29506169,29506185,16,50.000000,16,50.000000,100.000000,100.000000
190,29506185,29506216,29506185,29506216,0,0.000000,31,100.000000,0.000000,1.000000
191,29506216,29506247,29506216,29506231,16,51.612903,15,48.387097,106.666667,93.750000
192,29506247,29506278,29506263,29506278,16,51.612903,15,48.387097,106.666667,93.750000
193,29506278,29506309,29506278,29506294,15,48.387097,16,51.612903,93.750000,106.666667
194,29506309,29506341,29506309,29506325,16,50.000000,16,50.000000,100.000000,100.000000
195,29506341,29506356,29506341,29506356,0,0.000000,15,100.000000,0.000000,1.000000
196,29506356,29506387,29506356,29506372,15,48.387097,16,51.612903,93.750000,106.666667
197,29506387,29506419,29506387,29506403,16,50.000000,16,50.000000,100.000000,100.000000
198,29506419,29506450,29506419,29506450,0,0.000000,31,100.000000,0.000000,1.000000
199,29506450,29506481,29506450,29506465,16,51.612903,15,48.387097,106.666667,93.750000
200,29506481,29506512,29506481,29506497,15,48.387097,16,51.612903,93.750000,106.666667
201,29506512,29506528,29506512,29506528,0,0.000000,16,100.000000,0.000000,1.000000
202,29506528,29506559,29506528,29506543,16,51.612903,15,48.387097,106.666667,93.750000
203,29506559,29506590,29506559,29506575,15,48.387097,16,51.612903,93.750000,106.666667
204,29506590,29506621,29506590,29506606,15,48.387097,16,51.612903,93.750000,106.666667
205,29506621,29506653,29506621,29506637,16,50.000000,16,50.000000,100.000000,100.000000
206,29506653,29506668,29506653,29506668,0,0.000000,15,100.000000,0.000000,1.000000
207,29506668,29506699,29506684,29506699,16,51.612903,15,48.387097,106.666667,93.750000
208,29506699,29506731,29506699,29506715,16,50.000000,16,50.000000,100.000000,100.000000
209,29506731,29506762,29506731,29506746,16,51.612903,15,48.387097,106.666667,93.750000
210,29506762,29506777,29506762,29506777,0,0.000000,15,100.000000,0.000000,1.000000
211,29506777,29506809,29506793,29506809,16,50.000000,16,50.000000,100.000000,100.000000
212,29506809,29506840,29506824,29506840,15,48.387097,16,51.612903,93.750000,106.666667
213,29506840,29506871,29506855,29506871,15,48.387097,16,51.612903,93.750000,106.666667
214,29506871,29506902,29506887,29506902,16,51.612903,15,48.387097,106.666667,93.750000
215,29506902,29506933,29506918,29506933,16,51.612903,15,48.387097,106.666667,93.750000
216,29506933,29506965,29506933,29506949,16,50.000000,16,50.000000,100.000000,100.000000
217,29506965,29506996,29506980,29506996,15,48.387097,16,51.612903,93.750000,106.666667
218,29506996,29507027,29506996,29507011,16,51.612903,15,48.387097,106.666667,93.750000
219,29507027,29507058,29507027,29507043,15,48.387097,16,51.612903,93.750000,106.666667
220,29507058,29507074,29507058,29507074,0,0.000000,16,100.000000,0.000000,1.000000
221,29507074,29507105,29507089,29507105,15,48.387097,16,51.612903,93.750000,106.666667
222,29507105,29507136,29507105,29507121,15,48.387097,16,51.612903,93.750000,106.666667
223,29507136,29507152,29507136,29507152,0,0.000000,16,100.000000,0.000000,1.000000
224,29507152,29507183,29507167,29507183,15,48.387097,16,51.612903,93.750000,106.666667
225,29507183,29507214,29507199,29507214,16,51.612903,15,48.387097,106.666667,93.750000
226,29507214,29507230,29507214,29507230,0,0.000000,16,100.000000,0.000000,1.000000
227,29507230,29507261,29507245,29507261,15,48.387097,16,51.612903,93.750000,106.666667
228,29507261,29507292,29507277,29507292,16,51.612903,15,48.387097,106.666667,93.750000
