统计序号,client发送时间(count),client接收时间(count),server发送时间(count),server接收时间(count),本地总线间隔时间(us),占比百分比(%),服务端间隔时间(us),占比百分比(%),对比百分比1 L/S(%),对比百分比2 S/L(%)
0,73861008996,73861093893,73861025184,73861089281,6659.789154,24.500277,20522.716605,75.499723,32.450817,308.158654
1,73861093901,73861171767,73861102960,73861158462,7160.554069,28.721136,17770.750846,71.278864,40.294043,248.175639
2,73861171775,73861249867,73861187350,73861244325,6761.286902,27.041182,18242.379184,72.958818,37.063624,269.806317
3,73861249874,73861327958,73861259166,73861313702,7539.649759,30.157267,17461.454869,69.842733,43.178818,231.595040
4,73861327965,73861406026,73861343559,73861398812,7302.714953,29.218176,17691.025486,70.781824,41.279207,242.252718
5,73861406034,73861468492,73861412215,73861465160,3045.892991,15.231035,16952.045036,84.768965,17.967702,556.554189
6,73861468499,73861546582,73861480962,73861533581,8153.118798,32.611452,16847.665648,67.388548,48.393166,206.640748
7,73861546589,73861609035,73861549606,73861602986,2902.771561,14.518144,17091.324280,85.481856,16.983889,588.793294
8,73861609042,73861687196,73861618415,73861670501,8346.508830,33.354659,16677.008551,66.645341,50.047998,199.808194
9,73861687203,73861765156,73861699549,73861756398,6757.124534,27.072723,18202.036231,72.927277,37.122905,269.375474
10,73861765163,73861827735,73861771467,73861823749,3294.674538,16.445055,16739.764256,83.554945,19.681726,508.085520
11,73861827773,73861905764,73861837018,73861892420,7232.595057,28.963598,17738.732629,71.036402,40.772896,245.260968
12,73861905771,73861984134,73861921358,73861975599,7723.434325,30.782385,17367.001129,69.217615,44.471894,224.861123
13,73861984156,73862062093,73861990392,73862047133,6786.581293,27.196325,18167.456556,72.803675,37.355704,267.696735
14,73862062104,73862140128,73862077685,73862134079,6925.540355,27.722239,18056.353343,72.277761,38.355144,260.721221
15,73862140138,73862218601,73862149647,73862206807,6820.840786,27.150377,18301.612886,72.849623,37.269069,268.319016
16,73862218627,73862312084,73862237210,73862293083,12033.726709,40.215286,17889.538432,59.784714,67.266837,148.661665
17,73862312104,73862390177,73862324540,73862379679,7343.057906,29.375072,17654.524718,70.624928,41.593065,240.424697
18,73862390194,73862468314,73862396256,73862452621,6965.563127,27.848182,18047.068060,72.151818,38.596647,259.089864
19,73862468331,73862546210,73862483753,73862538968,7256.608720,29.101555,17678.858563,70.898445,41.046817,243.624250
20,73862546226,73862624269,73862555549,73862610871,7274.859104,29.113437,17713.118056,70.886563,41.070460,243.484002
21,73862624284,73862686659,73862627395,73862682578,2302.750173,11.530261,17668.612734,88.469739,13.032999,767.283092
22,73862686669,73862764645,73862695952,73862750300,7565.264333,30.301631,17401.260621,69.698369,43.475381,230.015236
23,73862764652,73862842890,73862780331,73862834062,7846.704461,31.323653,17203.708222,68.676347,45.610541,219.247562
24,73862842901,73862921302,73862849068,73862903758,7591.839453,30.243237,17510.762924,69.756763,43.355275,230.652440
25,73862921311,73862998891,73862933341,73862987364,7542.531399,30.364785,17297.201416,69.635215,43.605501,229.328862
26,73862998897,73863061458,73863001938,73863054202,3296.915813,16.459136,16734.000977,83.540864,19.701898,507.565310
27,73863061465,73863123899,73863067617,73863121020,2891.565185,14.464875,17098.688470,85.535125,16.911035,591.329864
28,73863123907,73863202019,73863136434,73863192313,7118.610204,28.462976,17891.459525,71.537024,39.787756,251.333603
29,73863202026,73863264464,73863208220,73863261233,3017.716960,15.094974,16973.817423,84.905026,17.778658,562.472149
30,73863264470,73863342870,73863277318,73863335393,6507.702622,25.924745,18594.579572,74.075255,34.997848,285.731857
31,73863342892,73863420726,73863352240,73863405860,7752.891085,31.109798,17168.168001,68.890202,45.158523,221.442141
32,73863420743,73863498715,73863436243,73863492168,7059.056321,28.275535,17906.187905,71.724465,39.422441,253.662630
33,73863498727,73863576855,73863508027,73863565237,6697.570650,26.774012,18317.621994,73.225988,36.563538,273.496510
34,73863576865,73863639252,73863579911,73863634103,2623.892890,13.135749,17351.312203,86.864251,15.122158,661.281269
35,73863639261,73863717355,73863648603,73863704890,6982.212600,27.924040,18022.093851,72.075960,38.742516,258.114367
36,73863717363,73863795777,73863720486,73863776225,7260.130724,28.917030,17846.634021,71.082970,40.680672,245.816979
37,73863795798,73863874028,73863808284,73863865190,6827.564611,27.258085,18220.286614,72.741915,37.472323,266.863628
38,73863874046,73863951608,73863880001,73863936418,6770.252003,27.262061,18063.717533,72.737939,37.479838,266.810121
39,73863951618,73864030042,73863967306,73864021446,7775.303837,30.965011,17334.662730,69.034989,44.854082,222.945149
40,73864030063,73864107990,73864036161,73864093702,6527.233735,26.160381,18423.602293,73.839619,35.428651,282.257432
41,73864108016,73864186081,73864123562,73864178875,7284.784751,29.144943,17710.236416,70.855057,41.133187,243.112693
42,73864186096,73864264174,73864195327,73864249227,7741.364527,30.966469,17257.819009,69.033531,44.857143,222.929936
43,73864264187,73864342424,73864279711,73864334838,7399.409968,29.538454,17650.682532,70.461546,41.921382,238.541757
44,73864342445,73864420388,73864351686,73864407078,7220.428135,28.932682,17735.530808,71.067318,40.711655,245.629906
45,73864420409,73864498769,73864439138,73864494429,7386.282499,29.439765,17703.192408,70.560235,41.722884,239.676622
46,73864498786,73864576520,73864510989,73864565822,7332.491895,29.460725,17556.548974,70.539275,41.764996,239.434959
47,73864576611,73864654708,73864595228,73864650356,7354.264282,29.410861,17651.002715,70.589139,41.664853,240.010449
48,73864654726,73864733129,73864667212,73864723240,7164.076073,28.538449,17939.166668,71.461551,39.935389,250.404469
49,73864733154,73864810855,73864738830,73864793976,7221.708863,29.027940,17656.765994,70.972060,40.900519,244.495677
50,73864810875,73864888922,73864826455,73864881905,7235.156515,28.953067,17754.101374,71.046933,40.752029,245.386556
51,73864888942,73864966724,73864898142,73864956462,6231.385409,25.021213,18673.024204,74.978787,33.371056,299.660878
52,73864966737,73865029132,73864973016,73865027092,2663.595479,13.332799,17314.171071,86.667201,15.383904,650.030052
53,73865029140,73865107238,73865041595,73865094627,8025.686294,32.095572,16979.900884,67.904428,47.265802,211.569457
54,73865107244,73865169640,73865110271,73865167001,1814.152180,9.080710,18163.934552,90.919290,9.987661,1001.235439
55,73865169646,73865247743,73865182152,73865234256,8322.495167,33.282969,16682.771830,66.717031,49.886765,200.453968
56,73865247749,73865325810,73865263379,73865316437,8005.514818,32.030079,16988.225621,67.969921,47.123902,212.206535
57,73865325818,73865388359,73865332004,73865383884,3413.462123,17.046418,16611.051024,82.953582,20.549345,486.633524
58,73865388370,73865466433,73865397665,73865450839,7969.014050,31.883223,17025.366753,68.116777,46.806710,213.644582
59,73865466441,73865544454,73865481926,73865534044,8291.117314,33.193186,16687.254380,66.806814,49.685329,201.266654
60,73865544460,73865606895,73865547551,73865599301,3421.146496,17.113798,16569.427341,82.886202,20.647343,484.323818
61,73865606901,73865669436,73865613118,73865666106,3056.779185,15.266651,16965.812869,84.733349,18.017287,555.022520
62,73865669444,73865747605,73865681921,73865735167,7977.338787,31.876511,17048.419869,68.123489,46.792247,213.710616
63,73865747613,73865810008,73865750591,73865804120,2838.735127,14.209472,17139.031423,85.790528,16.562985,603.755921
64,73865810022,73865888109,73865819468,73865872764,7937.636197,31.747922,17064.428978,68.252078,46.515686,214.981243
65,73865888117,73865966143,73865903678,73865958964,7280.942565,29.144131,17701.591497,70.855869,41.131570,243.122252
66,73865966150,73866044201,73865972342,73866028372,7050.731584,28.213604,17939.807033,71.786396,39.302160,254.438945
67,73866044209,73866122342,73866059817,73866113028,7979.580062,31.896894,17037.213493,68.103106,46.836180,213.510152
68,73866122349,73866184780,73866128660,73866180913,3258.814135,16.302798,16730.478973,83.697202,19.478307,513.391629
69,73866184787,73866262913,73866194130,73866251153,6756.804351,27.011494,18257.747928,72.988506,37.007874,270.212766
70,73866262921,73866325340,73866266074,73866319831,2773.417964,13.877185,17212.032958,86.122815,16.113250,620.607250
71,73866325348,73866403460,73866334633,73866388516,7757.693817,31.018281,17252.375912,68.981719,44.965945,222.390524
72,73866403471,73866481554,73866419064,73866473095,7701.021573,30.803120,17299.762873,69.196880,44.515186,224.642441
73,73866481562,73866559590,73866487674,73866542603,7395.887964,29.603476,17587.286463,70.396524,42.052468,237.798173
74,73866559598,73866637712,73866572099,73866627746,7193.532832,28.761810,17817.177261,71.238190,40.374144,247.683269
75,73866637719,73866700081,73866640684,73866696149,2208.296432,11.059620,17758.904106,88.940380,12.434869,804.190228
76,73866700119,73866778242,73866709449,73866762575,8003.593725,31.996979,17009.998008,68.003021,47.052291,212.529504
77,73866778253,73866856334,73866793838,73866850502,6857.341553,27.429208,18142.802529,72.570792,37.796485,264.574870
78,73866856342,73866934386,73866865685,73866922248,6877.833212,27.524217,18110.464130,72.475783,37.977123,263.316419
79,73866934394,73866996820,73866937481,73866993500,2051.407169,10.263352,17936.285029,89.736648,11.437191,874.340565
80,73866996831,73867074903,73867009308,73867065226,7093.315813,28.376371,17903.946629,71.623629,39.618727,252.405886
81,73867074910,73867153081,73867081113,73867135752,7534.526844,30.103235,17494.433633,69.896765,43.068138,232.190209
82,73867153089,73867231086,73867165504,73867221211,7136.860588,28.578022,17836.388191,71.421978,40.012925,249.919246
83,73867231094,73867293569,73867237252,73867290038,3102.245053,15.508603,16901.136070,84.491397,18.355246,544.803385
84,73867293576,73867371617,73867306068,73867362306,6980.931871,27.937879,18006.404924,72.062121,38.769160,257.936981
85,73867371628,73867434124,73867377897,73867431134,2964.566720,14.815348,17045.538229,85.184652,17.392039,574.975699
86,73867434130,73867512212,73867446600,73867500210,7835.498085,31.341410,17164.966179,68.658590,45.648200,219.066688
87,73867512219,73867574681,73867515294,73867570650,2275.214506,11.376517,17724.004249,88.623483,12.836910,779.003659
88,73867574689,73867652807,73867584028,73867638673,7515.636096,30.048132,17496.354726,69.951868,42.955440,232.799387
89,73867652816,73867730763,73867668370,73867724490,6988.616243,28.002361,17968.623428,71.997639,38.893443,257.112750
90,73867730770,73867808951,73867740239,73867796020,7172.080627,28.651463,17860.081672,71.348537,40.157043,249.022321
91,73867808963,73867871439,73867812013,73867867442,2256.323758,11.279531,17747.377548,88.720469,12.713561,786.561657
92,73867871446,73867949480,73867880738,73867936076,7266.854550,29.084758,17718.240970,70.915242,41.013409,243.822700
93,73867949488,73868027592,73867965078,73868020189,7361.948654,29.438953,17645.559618,70.561047,41.721253,239.685991
94,73868027600,73868090003,73868033745,73868087456,2783.023429,13.928818,17197.304578,86.071182,16.182905,617.936033
95,73868090010,73868168195,73868102463,73868156048,7876.481403,31.463836,17156.961625,68.536164,45.908370,217.825203
96,73868168203,73868230607,73868171275,73868224153,3050.055359,15.265047,16930.592830,84.734953,18.015054,555.091329
97,73868230615,73868308677,73868239919,73868296571,6855.100278,27.426917,18138.960343,72.573083,37.792134,264.605325
98,73868308683,73868371163,73868311830,73868365588,2792.628894,13.959667,17212.353140,86.040333,16.224562,616.349461
99,73868371170,73868449518,73868380432,73868435368,7496.104984,29.882065,17589.527738,70.117935,42.616863,234.648898
100,73868449542,73868527336,73868465237,73868520449,7230.353782,29.027946,17677.898017,70.972054,40.900529,244.495616
101,73868527345,73868605469,73868533689,73868588577,7439.752922,29.742461,17574.158994,70.257539,42.333479,236.219659
102,73868605478,73868683817,73868618155,73868673385,7399.089786,29.498717,17683.661296,70.501283,41.841391,238.997793
103,73868683835,73868761719,73868690103,73868744948,7376.677034,29.581172,17560.391160,70.418828,42.007476,238.052867
104,73868761733,73868840018,73868774031,73868829828,7200.256658,28.725810,17865.204587,71.274190,40.303242,248.118997
105,73868840044,73868918076,73868846219,73868903227,6731.509960,26.942793,18252.945196,73.057207,36.879035,271.156773
106,73868918094,73868996054,73868933596,73868991398,6454.232200,25.856850,18507.169839,74.143150,34.874226,286.744717
107,73868996069,73869074056,73869005361,73869060836,7207.941030,28.866350,17762.105928,71.133650,40.580442,246.424129
108,73869074071,73869136440,73869077154,73869131755,2487.175103,12.454905,17482.266710,87.545095,14.226846,702.896498
109,73869136455,73869214676,73869145890,73869200625,7519.798465,30.025185,17525.171121,69.974815,42.908559,233.053734
110,73869214691,73869292811,73869230251,73869285238,7406.774158,29.612135,17605.857028,70.387865,42.069944,237.699390
111,73869292832,73869370925,73869302256,73869358618,6957.878755,27.827078,18046.107513,72.172922,38.556119,259.362201
112,73869370943,73869464716,73869389568,73869448294,11221.424542,37.374298,18803.018165,62.625702,59.678848,167.563558
113,73869464746,73869542835,73869480116,73869536768,6863.745196,27.452010,18138.960343,72.547990,37.839794,264.272053
114,73869542855,73869620991,73869552196,73869607689,7249.884895,28.978960,17767.869207,71.021040,40.803345,245.077949
115,73869621011,73869714551,73869639544,73869695560,12014.515779,40.115459,17935.324482,59.884541,66.988003,149.280461
116,73869714574,73869792561,73869726939,73869782505,7178.804453,28.749663,17791.242505,71.250337,40.350214,247.830159
117,73869792582,73869870731,73869798920,73869853866,7429.186910,29.690719,17592.729559,70.309281,42.228734,236.805585
118,73869870754,73869948808,73869886303,73869941959,7171.440263,28.695518,17820.058901,71.304482,40.243639,248.486472
119,73869948830,73870026753,73869958070,73870015005,6719.983402,26.934281,18229.571897,73.065719,36.863089,271.274061
120,73870026772,73870120507,73870045559,73870104233,11225.907092,37.404385,18786.368692,62.595615,59.755599,167.348336
121,73870120528,73870198621,73870135996,73870193725,6520.189727,26.076601,18483.796541,73.923399,35.275165,283.485563
122,73870198640,73870276498,73870207777,73870262619,7369.312844,29.561509,17559.430614,70.438491,41.967835,238.277720
123,73870276510,73870354516,73870292096,73870346497,7557.900143,30.260493,17418.230276,69.739507,43.390746,230.463885
124,73870354523,73870416961,73870360661,73870413682,3015.155503,15.082162,16976.378881,84.917838,17.760887,563.034937
125,73870416969,73870494985,73870429426,73870482135,8102.850198,32.438218,16876.482043,67.561782,48.012673,208.278342
126,73870494994,73870557524,73870498154,73870552065,2759.650131,13.783784,17261.341013,86.216216,15.987461,625.490196
127,73870557533,73870635879,73870566875,73870622254,7353.623918,29.314834,17731.368439,70.685166,41.472399,241.124222
128,73870635911,73870729575,73870654653,73870712995,11309.474639,37.711394,18680.068212,62.288606,60.543005,165.171848
129,73870729592,73870807707,73870745158,73870800700,7227.472143,28.897139,17783.558133,71.102861,40.641316,246.055021
130,73870807725,73870885913,73870816930,73870879190,5099.861617,20.371412,19934.541957,79.628588,25.583039,390.883978
131,73870885985,73870963926,73870895209,73870952099,6740.154879,27.008891,18215.163700,72.991109,37.002988,270.248444
132,73870963943,73871057550,73870982548,73871038779,11967.128818,39.928638,18004.163649,60.071362,66.468674,150.446811
133,73871057569,73871135546,73871070007,73871127201,6654.346057,26.652731,18312.499079,73.347269,36.337728,275.196074
134,73871135566,73871213767,73871141846,73871197145,7332.812077,29.286071,17705.753866,70.713929,41.414854,241.459261
135,73871213785,73871338488,73871229358,73871334204,6357.857367,15.923434,33569.819885,84.076566,18.939206,528.005237
136,73871338505,73871416595,73871347833,73871402883,7376.997216,29.504418,17626.028505,70.495582,41.852861,238.932292
137,73871416614,73871494772,73871432132,73871485766,7852.147558,31.377466,17172.650551,68.622534,45.724727,218.700049
138,73871494786,73871556941,73871500689,73871554625,2631.577262,13.223393,17269.345567,86.776607,15.238431,656.235552
139,73871556952,73871635490,73871569545,73871624864,7434.309825,29.564033,17712.157509,70.435967,41.972921,238.248848
140,73871635513,73871713249,73871641641,73871696583,7298.232402,29.322322,17591.448831,70.677678,41.487387,241.037115
141,73871713261,73871791354,73871728948,73871783727,7464.727131,29.854148,17539.259137,70.145852,42.560105,234.961826
142,73871791366,73871869483,73871797522,73871851185,7829.734806,31.304326,17181.935834,68.695674,45.569573,219.444672
143,73871869495,73871948057,73871881950,73871936960,7540.930488,29.978870,17613.221218,70.021130,42.814034,233.568274
144,73871948079,73872025833,73871966306,73872021377,7262.692181,29.172776,17632.752331,70.827224,41.188647,242.785346
145,73872025853,73872103901,73872035222,73872090114,7414.138348,29.668922,17575.439722,70.331078,42.184654,237.053032
146,73872103919,73872181980,73872119520,73872174264,7465.687678,29.870230,17528.052761,70.129770,42.592796,234.781490
147,73872181998,73872260071,73872188174,73872242671,7548.614860,30.197379,17448.967765,69.802621,43.261097,231.154564
148,73872260088,73872338226,73872272564,73872326308,7810.523876,31.219125,17207.870590,68.780875,45.389253,220.316471
149,73872338245,73872431963,73872356927,73872412135,12330.215399,41.091359,17676.617288,58.908641,69.754383,143.360166
150,73872431981,73872509943,73872444173,73872499834,7140.382592,28.604961,17821.659812,71.395039,40.065755,249.589704
151,73872509961,73872603426,73872516190,73872594563,4832.189322,16.147221,25093.637276,83.852779,19.256632,519.301617
152,73872603447,73872681769,73872609626,73872666685,6808.033499,27.148183,18269.274486,72.851817,37.264936,268.348775
153,73872681791,73872759657,73872697263,73872753642,6879.754305,27.594842,18051.550610,72.405158,38.111708,262.386559
154,73872759666,73872837625,73872768861,73872823097,7595.681639,30.430098,17365.400218,69.569902,43.740320,228.622012
155,73872837634,73872915723,73872853269,73872908168,7425.024542,29.696884,17577.680997,70.303116,42.241207,236.735662
156,73872915734,73872994155,73872922161,73872980776,6341.528076,25.255990,18767.477944,74.744010,33.789985,295.945673
157,73872994177,73873087670,73873012825,73873072315,10887.154355,36.369568,19047.637344,63.630432,57.157505,174.955151
158,73873087683,73873165626,73873103269,73873160375,6671.635894,26.733639,18284.323048,73.266361,36.488285,274.060565
159,73873165639,73873243838,73873174969,73873232778,6528.514464,26.074502,18509.411115,73.925498,35.271325,283.516430
160,73873243852,73873337567,73873262396,73873324681,10063.325630,33.537854,19942.546511,66.462146,50.461588,198.170538
161,73873337581,73873431477,73873356179,73873416577,10725.462359,35.675641,19338.362755,64.324359,55.462101,180.303302
162,73873431500,73873509343,73873446909,73873502326,7180.405363,28.809270,17743.535362,71.190730,40.467727,247.110497
163,73873509361,73873587297,73873518849,73873574739,7058.736139,28.287313,17894.981529,71.712687,39.445339,253.515377
164,73873587309,73873649627,73873590404,73873645290,2379.593894,11.925928,17573.518629,88.074072,13.540794,738.509150
165,73873649639,73873727790,73873658947,73873711305,8258.458733,33.004056,16764.098101,66.995944,49.262768,202.993060
166,73873727798,73873805887,73873740259,73873794576,7611.370565,30.442188,17391.334974,69.557812,43.765304,228.491503
